

# ING Filter Throughput Data
# Serial Number : 62
# Filtername    : H6553
# Filtersystem  : Narrow Band
# Passband      : Halpha 6553/63
# FWHM          : 63
# Cosmetics     : Ghost?
# Measured      : 2010-11-29 16:41:27
# Wavelength Throughput
# nm %
640 0
640.1 0
640.2 0
640.3 0
640.4 0
640.5 0
640.6 0
640.7 0
640.8 0
640.9 0
641 0
641.1 0
641.2 0
641.3 0
641.4 0
641.5 0
641.6 0
641.7 0
641.8 0
641.9 0
642 1.39e-05
642.1 0
642.2 0
642.3 0
642.4 0
642.5 0
642.6 0.01
642.7 0
642.8 0
642.9 0
643 0.01
643.1 0
643.2 0
643.3 0
643.4 0
643.5 0.01
643.6 0
643.7 0
643.8 0.01
643.9 0.01
644 0.01
644.1 0
644.2 0.01
644.3 0
644.4 0
644.5 0
644.6 0.01
644.7 0.01
644.8 0.01
644.9 0.01
645 0.01
645.1 0.01
645.2 0.01
645.3 0.01
645.4 0.01
645.5 0.01
645.6 0.01
645.7 0.01
645.8 0.01
645.9 0.01
646 0.01
646.1 0.02
646.2 0.01
646.3 0.02
646.4 0.02
646.5 0.02
646.6 0.02
646.7 0.02
646.8 0.02
646.9 0.02
647 0.03
647.1 0.02
647.2 0.02
647.3 0.02
647.4 0.03
647.5 0.02
647.6 0.02
647.7 0.03
647.8 0.03
647.9 0.03
648 0.03
648.1 0.04
648.2 0.04
648.3 0.04
648.4 0.04
648.5 0.04
648.6 0.04
648.7 0.05
648.8 0.05
648.9 0.05
649 0.06
649.1 0.07
649.2 0.07
649.3 0.08
649.4 0.08
649.5 0.1
649.6 0.11
649.7 0.13
649.8 0.13
649.9 0.16
650 0.18
650.1 0.21
650.2 0.23
650.3 0.28
650.4 0.33
650.5 0.39
650.6 0.46
650.7 0.57
650.8 0.68
650.9 0.84
651 1.04
651.1 1.33
651.2 1.66
651.3 2.12
651.4 2.76
651.5 3.53
651.6 4.74
651.7 6.29
651.8 8.42
651.9 11.4
652 15.03
652.1 19.45
652.2 24.98
652.3 31.37
652.4 38.65
652.5 45.17
652.6 51.84
652.7 56.79
652.8 60.53
652.9 62.08
653 63.33
653.1 63.21
653.2 61.86
653.3 60.96
653.4 59.46
653.5 58.68
653.6 57.7
653.7 57.22
653.8 56.65
653.9 57.36
654 57.23
654.1 57.23
654.2 58.09
654.3 58.9
654.4 58.7
654.5 59.83
654.6 60.65
654.7 62.18
654.8 62.13
654.9 62.87
655 63.86
655.1 64.33
655.2 65.26
655.3 64.62
655.4 64.85
655.5 64.79
655.6 65.03
655.7 64.38
655.8 63.85
655.9 62.78
656 62.52
656.1 61.76
656.2 60.13
656.3 59.27
656.4 58.48
656.5 57.17
656.6 56.97
656.7 56.06
656.8 55.64
656.9 55.67
657 55.65
657.1 56.16
657.2 56.71
657.3 58.35
657.4 59.61
657.5 60.79
657.6 61.68
657.7 62.84
657.8 63.01
657.9 61.39
658 57.99
658.1 53.62
658.2 48.82
658.3 42.65
658.4 36.56
658.5 30.85
658.6 25.33
658.7 20.15
658.8 15.7
658.9 12.15
659 9.32
659.1 7.09
659.2 5.51
659.3 4.39
659.4 3.5
659.5 2.87
659.6 2.32
659.7 1.91
659.8 1.58
659.9 1.29
660 1.08
660.1 0.91
660.2 0.77
660.3 0.63
660.4 0.54
660.5 0.45
660.6 0.39
660.7 0.3
660.8 0.27
660.9 0.23
661 0.19
661.1 0.17
661.2 0.15
661.3 0.12
661.4 0.11
661.5 0.09
661.6 0.09
661.7 0.08
661.8 0.06
661.9 0.06
662 0.06
662.1 0.04
662.2 0.04
662.3 0.04
662.4 0.04
662.5 0.03
662.6 0.03
662.7 0.03
662.8 0.02
662.9 0.02
663 0.02
663.1 0.02
663.2 0.02
663.3 0.01
663.4 0.02
663.5 0.01
663.6 0.02
663.7 0.01
663.8 0.01
663.9 0.01
664 0.01
664.1 0.01
664.2 0.01
664.3 0.01
664.4 0.01
664.5 0.01
664.6 0.01
664.7 0.01
664.8 0
664.9 0.01
665 0.01
665.1 0
665.2 0.01
665.3 0
665.4 -7.41e-05
665.5 0
665.6 0
665.7 0
665.8 -0.01
665.9 0
666 0
666.1 0
666.2 0
666.3 0
666.4 0
666.5 0
666.6 0
666.7 0
666.8 0
666.9 0
667 0
667.1 0
667.2 0
667.3 0
667.4 0
667.5 0
667.6 0
667.7 0
667.8 -3.8e-05
667.9 0
668 0
668.1 0
668.2 0
668.3 0
668.4 0.01
668.5 -0.01
668.6 0
668.7 0
668.8 0
668.9 0
669 0
669.1 0
669.2 0
669.3 -0.01
669.4 0
669.5 0
669.6 0
669.7 0
669.8 0
669.9 -0.01
670 0
