

# ING Filter Throughput Data
# Serial Number : 216
# Filtername    : SloGunR
# Filtersystem  : Sloan Gunn
# Passband      : R
# FWHM          : 1322
# Cosmetics     : Small stains on both sides, not removed by Propanol. Faint dark cloudy pattern in centre of coating visible on one side.
# Measured      : 2015-02-27 14:44:53
# Wavelength Throughput
# nm %
500 0.000388395
501 0.000898151
502 0.00062668
503 6.88255e-05
504 0.000290886
505 0.000789995
506 0.000411968
507 0.000811512
508 0.000140238
509 0.000800279
510 0.000399772
511 0.000806814
512 0.000347682
513 0.000864477
514 0.000600847
515 0.000497442
516 0.000785001
517 0.00046678
518 0.00109799
519 0.000812321
520 0.00153519
521 0.000346083
522 0.00126188
523 0.000395845
524 0.000874776
525 5.41688e-05
526 8.8015e-05
527 0.000833667
528 0.000498985
529 0.00037397
530 0.000652074
531 0.000954724
532 0.000777471
533 0.00100588
534 0.00155768
535 0.00107284
536 0.00256555
537 0.00328343
538 0.00822323
539 0.021481
540 0.0581522
541 0.153616
542 0.371204
543 0.81557
544 1.63326
545 2.99827
546 5.07146
547 7.9394
548 11.5662
549 15.7098
550 19.9673
551 24.0735
552 27.959
553 31.4
554 34.6314
555 37.6627
556 40.4448
557 42.8024
558 44.6894
559 46.1749
560 47.533
561 48.9906
562 50.7648
563 52.9965
564 55.7135
565 58.7684
566 62.0225
567 65.2652
568 67.7625
569 71.3619
570 73.9812
571 76.3464
572 78.4084
573 80.1972
574 81.6106
575 82.683
576 83.5225
577 84.1837
578 84.8695
579 85.6018
580 86.383
581 87.1778
582 87.9038
583 88.3986
584 88.6523
585 88.6086
586 88.4147
587 88.1574
588 87.9523
589 87.9838
590 88.2196
591 88.6487
592 89.2317
593 89.7774
594 90.1591
595 90.3386
596 90.2488
597 89.8169
598 89.3324
599 88.7465
600 88.1871
601 87.7311
602 87.3409
603 87.1684
604 87.1356
605 87.2065
606 87.2897
607 87.446
608 87.6442
609 87.6948
610 87.6067
611 87.4884
612 87.2431
613 87.0277
614 86.9199
615 87.0412
616 87.2862
617 87.6463
618 88.0342
619 88.2916
620 88.3478
621 88.1075
622 87.541
623 86.7314
624 85.8006
625 84.8698
626 84.0418
627 83.3812
628 82.8512
629 82.5083
630 82.2947
631 82.2277
632 82.3674
633 82.5507
634 82.9412
635 83.4617
636 84.0251
637 84.5152
638 84.849
639 84.7882
640 84.266
641 83.3587
642 82.0306
643 80.512
644 79.0394
645 77.6932
646 76.6169
647 75.9905
648 75.6563
649 75.7399
650 76.1614
651 76.803
652 77.6978
653 78.589
654 79.4648
655 80.2247
656 80.7864
657 81.0989
658 81.1276
659 80.8768
660 80.39
661 79.6584
662 78.8587
663 78.1356
664 77.3624
665 76.8419
666 76.4396
667 76.2372
668 76.2208
669 76.2302
670 76.2232
671 76.0958
672 75.9442
673 75.5977
674 74.9506
675 74.0386
676 72.7805
677 71.1126
678 69.1152
679 66.6182
680 63.8986
681 61.0248
682 58.2267
683 55.688
684 53.5807
685 51.9774
686 50.9275
687 50.3422
688 49.9286
689 49.4364
690 48.539
691 46.9564
692 44.5663
693 41.3381
694 37.1354
695 31.7145
696 25.2899
697 18.509
698 12.629
699 8.04542
700 5.14102
701 3.26031
702 2.14041
703 1.44927
704 1.02464
705 0.75143
706 0.574316
707 0.449354
708 0.362198
709 0.295423
710 0.243107
711 0.200011
712 0.161282
713 0.12999
714 0.105145
715 0.0831203
716 0.0673139
717 0.0534676
718 0.0463678
719 0.0370823
720 0.0330631
721 0.0285218
722 0.0263106
723 0.0236452
724 0.0223781
725 0.021931
726 0.0211863
727 0.0223776
728 0.0231057
729 0.0238556
730 0.0251672
731 0.0266046
732 0.026712
733 0.0271029
734 0.0268483
735 0.0247473
736 0.0226148
737 0.0213716
738 0.0180589
739 0.0155371
740 0.0140682
741 0.0119639
742 0.0101757
743 0.00932045
744 0.00912981
745 0.00806138
746 0.00801933
747 0.00833397
748 0.00881872
749 0.00840969
750 -0.017622
