

# ING Filter Throughput Data
# Serial Number : 76
# Filtername    : H6923
# Filtersystem  : Narrow Band
# Passband      : Halpha 6923/54
# FWHM          : 54
# Cosmetics     : finger print
# Measured      : 2010-11-29 17:06:46
# Wavelength Throughput
# nm %
670 0
670.1 0
670.2 0
670.3 0
670.4 0
670.5 -0.01
670.6 0
670.7 0
670.8 0
670.9 0
671 0
671.1 0
671.2 0
671.3 0
671.4 0
671.5 0
671.6 0
671.7 0
671.8 0
671.9 0
672 0
672.1 -0.01
672.2 0
672.3 0
672.4 0
672.5 0
672.6 0
672.7 -0.01
672.8 0
672.9 0
673 0
673.1 0
673.2 0
673.3 0
673.4 0
673.5 0
673.6 0
673.7 0
673.8 0
673.9 2.97e-05
674 0
674.1 0
674.2 0
674.3 0.01
674.4 -7.95e-05
674.5 0
674.6 0
674.7 0
674.8 0
674.9 0.01
675 0
675.1 -0.01
675.2 0
675.3 0
675.4 0
675.5 0.01
675.6 0
675.7 0
675.8 0
675.9 0
676 0
676.1 0
676.2 -0.01
676.3 0
676.4 0
676.5 0
676.6 0
676.7 0
676.8 0
676.9 0
677 0.01
677.1 0
677.2 0.01
677.3 0
677.4 0
677.5 0.01
677.6 0
677.7 0
677.8 3.78e-05
677.9 0
678 0.01
678.1 0
678.2 0
678.3 0.01
678.4 0.01
678.5 0
678.6 0
678.7 0.01
678.8 0
678.9 0
679 -1.59e-05
679.1 0
679.2 0
679.3 0
679.4 0
679.5 0.01
679.6 0.01
679.7 0
679.8 0.01
679.9 0.01
680 0
680.1 0.01
680.2 0
680.3 0
680.4 0.01
680.5 0.01
680.6 0.01
680.7 0.01
680.8 0.02
680.9 0.01
681 0.01
681.1 0.01
681.2 0.01
681.3 0.01
681.4 0.01
681.5 0.01
681.6 0.01
681.7 0.01
681.8 0.01
681.9 0.02
682 0.02
682.1 0.02
682.2 0.01
682.3 0.02
682.4 0.02
682.5 0.02
682.6 0.03
682.7 0.02
682.8 0.03
682.9 0.03
683 0.03
683.1 0.03
683.2 0.03
683.3 0.03
683.4 0.03
683.5 0.04
683.6 0.04
683.7 0.04
683.8 0.04
683.9 0.04
684 0.05
684.1 0.05
684.2 0.05
684.3 0.05
684.4 0.06
684.5 0.06
684.6 0.06
684.7 0.07
684.8 0.08
684.9 0.08
685 0.09
685.1 0.1
685.2 0.11
685.3 0.11
685.4 0.12
685.5 0.13
685.6 0.14
685.7 0.16
685.8 0.18
685.9 0.19
686 0.21
686.1 0.22
686.2 0.24
686.3 0.27
686.4 0.3
686.5 0.31
686.6 0.35
686.7 0.38
686.8 0.43
686.9 0.5
687 0.53
687.1 0.6
687.2 0.7
687.3 0.78
687.4 0.87
687.5 1.01
687.6 1.16
687.7 1.3
687.8 1.49
687.9 1.73
688 2.04
688.1 2.31
688.2 2.71
688.3 3.14
688.4 3.7
688.5 4.46
688.6 5.1
688.7 6.11
688.8 7.23
688.9 8.57
689 10.28
689.1 12.2
689.2 14.46
689.3 17.12
689.4 20.38
689.5 23.88
689.6 27.79
689.7 31.54
689.8 35.45
689.9 39.78
690 44.05
690.1 47.4
690.2 50.01
690.3 53.01
690.4 55.19
690.5 55.94
690.6 57.42
690.7 58.1
690.8 58.01
690.9 58.4
691 58.46
691.1 58.49
691.2 59.02
691.3 59.41
691.4 58.42
691.5 59.34
691.6 58.94
691.7 59.53
691.8 58.69
691.9 59.12
692 58.33
692.1 58.62
692.2 58.18
692.3 58.43
692.4 58.17
692.5 57.81
692.6 56.63
692.7 56.4
692.8 56.5
692.9 55.83
693 56.48
693.1 55.46
693.2 55.8
693.3 56.26
693.4 54.95
693.5 56.05
693.6 56.18
693.7 55.77
693.8 55.77
693.9 55.42
694 54.7
694.1 53.89
694.2 51.87
694.3 50.39
694.4 48.09
694.5 44.76
694.6 42.59
694.7 37.87
694.8 34.39
694.9 30.03
695 26.04
695.1 23.33
695.2 19.79
695.3 17.14
695.4 14.48
695.5 12.32
695.6 10.48
695.7 8.95
695.8 7.74
695.9 6.49
696 5.57
696.1 4.84
696.2 4.2
696.3 3.64
696.4 3.07
696.5 2.66
696.6 2.35
696.7 2.06
696.8 1.77
696.9 1.54
697 1.4
697.1 1.21
697.2 1.09
697.3 0.93
697.4 0.86
697.5 0.72
697.6 0.68
697.7 0.58
697.8 0.55
697.9 0.47
698 0.41
698.1 0.38
698.2 0.34
698.3 0.31
698.4 0.29
698.5 0.26
698.6 0.24
698.7 0.21
698.8 0.23
698.9 0.19
699 0.17
699.1 0.13
699.2 0.15
699.3 0.12
699.4 0.11
699.5 0.11
699.6 0.1
699.7 0.1
699.8 0.09
699.9 0.08
700 0.08
