

# ING Filter Throughput Data
# Serial Number : 65
# Filtername    : H6626
# Filtersystem  : Narrow Band
# Passband      : Halpha 6626/44
# FWHM          : 44
# Cosmetics     : 
# Measured      : 2010-07-09 09:37:47
# Wavelength Throughput
# nm %
650 0.002643
650.1 0.00237138
650.2 0.00340089
650.3 0.00296487
650.4 0.00384906
650.5 0.00397115
650.6 0.00382223
650.7 0.00363342
650.8 0.0042342
650.9 0.00439356
651 0.00422699
651.1 0.00497174
651.2 0.00462728
651.3 0.00606927
651.4 0.00429165
651.5 0.00649254
651.6 0.00665334
651.7 0.00723979
651.8 0.0061705
651.9 0.00842276
652 0.00766633
652.1 0.00794119
652.2 0.00896906
652.3 0.00997415
652.4 0.0104105
652.5 0.0104926
652.6 0.0100137
652.7 0.0111306
652.8 0.00969881
652.9 0.0103767
653 0.0105987
653.1 0.0131643
653.2 0.0112547
653.3 0.0127199
653.4 0.0152291
653.5 0.0154244
653.6 0.017482
653.7 0.0173268
653.8 0.0160733
653.9 0.0174273
654 0.0197161
654.1 0.0195982
654.2 0.0237938
654.3 0.0232647
654.4 0.0264765
654.5 0.0259742
654.6 0.0261234
654.7 0.0276684
654.8 0.030683
654.9 0.0351539
655 0.0343782
655.1 0.0384523
655.2 0.0413236
655.3 0.0406205
655.4 0.0445727
655.5 0.0514309
655.6 0.053702
655.7 0.0538118
655.8 0.0656105
655.9 0.0669119
656 0.074362
656.1 0.0759799
656.2 0.0784428
656.3 0.0874505
656.4 0.092996
656.5 0.101334
656.6 0.1093
656.7 0.115304
656.8 0.128947
656.9 0.130918
657 0.150235
657.1 0.157706
657.2 0.179078
657.3 0.19505
657.4 0.215636
657.5 0.241896
657.6 0.265626
657.7 0.279599
657.8 0.315978
657.9 0.340183
658 0.391121
658.1 0.425375
658.2 0.487573
658.3 0.547246
658.4 0.62323
658.5 0.679512
658.6 0.779451
658.7 0.878097
658.8 0.972314
658.9 1.1514
659 1.29996
659.1 1.50502
659.2 1.70114
659.3 1.97169
659.4 2.31039
659.5 2.67091
659.6 3.16702
659.7 3.7302
659.8 4.34707
659.9 5.11261
660 6.07758
660.1 7.22551
660.2 8.63523
660.3 10.229
660.4 12.2359
660.5 14.717
660.6 17.1937
660.7 20.2052
660.8 23.508
660.9 27.4586
661 31.1205
661.1 34.9244
661.2 38.6842
661.3 42.2816
661.4 45.0426
661.5 47.3047
661.6 49.1363
661.7 50.3948
661.8 50.9248
661.9 51.9351
662 51.6858
662.1 51.7886
662.2 51.615
662.3 51.2744
662.4 51.0383
662.5 50.5828
662.6 50.6375
662.7 50.4677
662.8 50.336
662.9 50.2538
663 50.1149
663.1 50.0314
663.2 49.82
663.3 49.926
663.4 49.4889
663.5 49.5777
663.6 49.1249
663.7 48.5116
663.8 48.0904
663.9 47.5983
664 46.5468
664.1 45.5772
664.2 44.2549
664.3 42.9234
664.4 41.2205
664.5 39.07
664.6 36.9539
664.7 34.5943
664.8 32.2243
664.9 29.4903
665 26.9374
665.1 24.1735
665.2 21.5078
665.3 18.9462
665.4 16.7908
665.5 14.7152
665.6 12.8419
665.7 11.0177
665.8 9.56712
665.9 8.26239
666 7.16418
666.1 6.08703
666.2 5.29265
666.3 4.56658
666.4 3.98142
666.5 3.41544
666.6 2.99209
666.7 2.5693
666.8 2.23672
666.9 1.90393
667 1.69678
667.1 1.46059
667.2 1.29066
667.3 1.11751
667.4 0.98638
667.5 0.874807
667.6 0.777176
667.7 0.680757
667.8 0.602466
667.9 0.529539
668 0.485991
668.1 0.419492
668.2 0.386042
668.3 0.334506
668.4 0.291363
668.5 0.262839
668.6 0.239429
668.7 0.2246
668.8 0.202151
668.9 0.190417
669 0.158893
669.1 0.147934
669.2 0.129721
669.3 0.122081
669.4 0.114327
669.5 0.101775
669.6 0.0999641
669.7 0.0847151
669.8 0.0795658
669.9 0.073967
670 0.0680435
