Wavelength (nm)	%T     filter: 671.6BP5%T #780-0407	
680	0.399718851
679.75	0.483985931
679.5	0.597637415
679.25	0.725817382
679	0.875707626
678.75	1.093986869
678.5	1.350727797
678.25	1.646918297
678	2.078565121
677.75	2.600358725
677.5	3.212695837
677.25	4.064808846
677	5.126300812
676.75	6.443227768
676.5	8.232859612
676.25	10.3580761
676	12.95601559
675.75	16.09498787
675.5	20.25608444
675.25	24.76767349
675	30.0454464
674.75	36.12055969
674.5	42.10914612
674.25	48.22657776
674	54.61955643
673.75	60.33005524
673.5	65.39524841
673.25	70.27706146
673	74.01682281
672.75	77.01212311
672.5	79.40258026
672.25	81.28459167
672	82.20928192
671.75	82.45035553
671.5	81.49794006
671.25	79.7665329
671	76.76374817
670.75	72.11950684
670.5	66.60372162
670.25	60.39528656
670	52.69169617
669.75	45.33077621
669.5	38.46194458
669.25	31.56770515
669	25.38964081
668.75	20.72708321
668.5	16.48820877
668.25	13.14284325
668	10.60093498
667.75	8.502274513
667.5	6.660648346
667.25	5.382142544
667	4.319707394
666.75	3.439684868
666.5	2.782403231
666.25	2.297069073
666	1.857693672
665.75	1.494062424
665.5	1.253296256
665.25	1.011882782
665	0.847931027
664.75	0.701084912
664.5	0.596277714
664.25	0.500649035
664	0.411694318
663.75	0.343252003
663.5	0.29532674
663.25	0.25609386
663	0.218240082
662.75	0.179375261
662.5	0.151383251
662.25	0.134999916
662	0.108688153
661.75	0.09762717
661.5	0.085159011
661.25	0.071673274
661	0.065557621
660.75	0.055335589
660.5	0.046968572
660.25	0.040406104
660	0.036442235
